,Time,omg,Q,S,F0,FEst,Flux
0,54690.991027062504,0.8182225825327861,1.1157092954828032e+16,4327846.031897332,0.1302240873850504,0.13022416855950922,0.1268670409917831
1,54695.00547862438,0.818222978353539,1.1157579002646538e+16,4327846.015685896,0.1302241922884925,0.1302242315563386,0.1564559340476989
2,54696.98246742562,0.8182231843471511,1.1156902320252414e+16,4326734.044456189,0.1302242297161672,0.13022426434124024,0.1701271086931228
3,54699.069075199186,0.818223046425045,1.1145836141466262e+16,4317534.059895437,0.1302240160382456,0.13022424239025526,0.1656457036733627
4,54701.01897322771,0.8182235751399188,1.1155355194866502e+16,4327298.251599158,0.1302244156324165,0.13022432653784094,0.1557089984416961
5,54703.03729062101,0.8182233677736204,1.1097780198559662e+16,4301854.158289407,0.1302240986341027,0.13022429353446952,0.1912381500005722
6,54705.031250001724,0.8182234592923009,1.1049538379509026e+16,4295172.608688525,0.1302241775362887,0.1302243081001199,0.1832286715507507
7,54707.023429404,0.8182237016282181,1.1015189361368002e+16,4298335.365231753,0.1302242243142386,0.13022434666907903,0.1471707671880722
8,54709.02358035929,0.8182241592107584,1.1070638367805788e+16,4322160.827976659,0.1302245194215137,0.13022441949560218,0.1658127009868621
9,54711.036488792466,0.818224617505542,1.114011744844156e+16,4337030.475996276,0.1302246109391268,0.13022449243548237,0.168933093547821
10,54712.914127507196,0.8182248852539087,1.1090269792121984e+16,4325762.276942661,0.1302244218484726,0.13022453504895842,0.1547185033559799
11,54714.979711219865,0.8182252879674418,1.1131029540028134e+16,4331878.0389196845,0.1302246513131011,0.13022459914280787,0.1560327857732772
12,54717.02105095033,0.8182257374281436,1.1262861221464064e+16,4344896.828692206,0.1302247845463821,0.13022467067670032,0.1787329316139221
13,54719.039335750786,0.8182260831037468,1.1236787297746092e+16,4335605.476269726,0.1302246925248838,0.13022472569268126,0.180351972579956
14,54721.003757438695,0.8182263260275254,1.1057829801482832e+16,4316759.754323967,0.1302245758552976,0.13022476435520142,0.1706604957580566
15,54722.55125423204,0.8182265860457982,1.1060632355944432e+16,4320526.534383502,0.1302248302489016,0.13022480573839482,0.1462914794683456
16,54725.38508577635,0.8182272424403567,1.1398771720106238e+16,4344830.993511624,0.1302257472561136,0.13022491020683344,0.2056312710046768
17,54726.997826287225,0.8182276233556786,1.158291094807946e+16,4350457.573518596,0.1302251130676145,0.13022497083138979,0.1838541328907013
18,54728.95090079745,0.818227693295318,1.0977269699100676e+16,4306346.769508067,0.130224555035054,0.13022498196262913,0.1625044643878936
19,54731.45045075704,0.8182281496970538,1.102902348607229e+16,4318744.94606379,0.1302252216178374,0.1302250546012214,0.1714354306459427
20,54732.95994575017,0.8182284793521662,1.1157182726574214e+16,4327604.26351201,0.1302251611934917,0.13022510706746207,0.1854308545589447
21,54735.341675746364,0.8182288658735841,1.1086723726727212e+16,4324739.943757725,0.1302249944724458,0.13022516858425634,0.1784874647855758
22,54736.95610812718,0.818229079104493,1.0943174682678596e+16,4319752.317559353,0.1302251496453345,0.13022520252100953,0.1694218665361404
23,54738.949410099885,0.8182290905167894,1.0176915351000962e+16,4292376.95156165,0.1302248449663181,0.1302252043373329,0.1560124307870865
24,54740.95663985264,0.8182294799008577,1.0332094049052136e+16,4311678.803782053,0.1302254005466877,0.13022526630973214,0.1461530327796936
25,54742.91561064254,0.8182296687722825,1.0047760881873432e+16,4308615.741345296,0.13022517887111,0.13022529636955302,0.1780766248703003
26,54744.96782151401,0.818230271828321,1.06866930839749e+16,4335303.397600393,0.1302256162737045,0.13022539234890249,0.1862890720367431
27,54747.021518980604,0.8182305214335026,1.0451519337423134e+16,4324770.972761704,0.1302253110072953,0.13022543207480097,0.1594526171684265
28,54749.04987325653,0.8182308773925584,1.053211469087818e+16,4328528.512952471,0.1302255176115305,0.13022548872744424,0.1629266589879989
29,54751.059183193756,0.8182313547430982,1.0853104009735918e+16,4338805.610879495,0.1302256619851034,0.13022556470014224,0.182842880487442
30,54753.06753411244,0.8182317415052123,1.0971894410545718e+16,4338779.026842346,0.1302256685550031,0.1302256262552445,0.1743678003549575
31,54755.04950534903,0.8182322145328329,1.1262201716371146e+16,4345939.355191529,0.1302258066824219,0.13022570153992852,0.1562538295984268
32,54757.03441429939,0.8182326278765187,1.1400006174908718e+16,4344887.176110557,0.1302258140097178,0.13022576732561933,0.1868604123592376
33,54759.030552418924,0.818233054721806,1.1572545531951814e+16,4346421.250261191,0.1302259410957814,0.1302258352601567,0.144651398062706
34,54761.0105702602,0.8182338873505814,1.2657045762618986e+16,4393553.365311453,0.1302264897738276,0.1302259677771421,0.1661989688873291
35,54762.9706213947,0.8182340404583129,1.2099228893446134e+16,4335555.748033065,0.1302256268856154,0.1302259921449944,0.1446238160133361
36,54767.003141577356,0.8182347592119517,1.2001002875569548e+16,4326815.738120291,0.1302260379984745,0.13022610653818886,0.144595593214035
37,54768.963652183345,0.8182351794683614,1.2105852444784334e+16,4332124.7683920385,0.1302262944382452,0.13022617342407383,0.1237813532352447
38,54770.968710411194,0.8182355858282042,1.2143047533158416e+16,4332305.481655743,0.1302262751171894,0.13022623809825148,0.1389144212007522
39,54772.95940833485,0.8182360959596081,1.2472609994051788e+16,4346454.737793962,0.130226597284975,0.13022631928818604,0.1458705812692642
40,54774.9778217997,0.8182363416933893,1.2175835046670442e+16,4324722.949843137,0.1302258954017873,0.13022635839793203,0.1223810315132141
41,54777.03661121834,0.8182366760316135,1.2060250554703208e+16,4320690.390323515,0.1302263008953079,0.13022641160951307,0.1373083591461181
42,54778.94632887894,0.8182372055515635,1.2446988490550044e+16,4340828.082970757,0.1302267506921455,0.13022649588523058,0.1234347745776176
43,54780.94207833711,0.8182376429947977,1.2565055172822046e+16,4341199.188475052,0.1302266412854514,0.13022656550648362,0.1278362721204757
44,54782.91744376807,0.8182379985186616,1.2506804342842122e+16,4333436.461947741,0.1302265731449353,0.13022662208986394,0.1255988776683807
45,54784.965984185794,0.8182385419769791,1.2800382249322976e+16,4344799.698860967,0.1302268768735131,0.13022670858394153,0.140163704752922
46,54786.9797873639,0.8182390645390316,1.3078583945314684e+16,4351528.618222184,0.1302269610596144,0.13022679175227525,0.1421339660882949
47,54788.97206711567,0.8182399701809625,1.4096616655329854e+16,4393932.655801405,0.1302274297069078,0.13022693588966525,0.1393677294254303
48,54790.96615935725,0.8182404298917265,1.4158271248915302e+16,4372024.6315238485,0.1302270518540836,0.13022700905490572,0.132285475730896
49,54792.99059417145,0.8182406824102234,1.3824070382824178e+16,4333455.870451578,0.1302268658944393,0.13022704924447273,0.1484946459531784
50,54795.029649839526,0.818240811183003,1.3269698451487936e+16,4294870.818458661,0.130226687996449,0.13022706973929712,0.1362032294273376
51,54799.044857638524,0.8182417025502559,1.3415116802397312e+16,4322442.278516697,0.130227296068081,0.13022721160480152,0.1338707357645034
52,54801.04959263752,0.818242212581724,1.3589530966838342e+16,4333902.498979476,0.1302273655036506,0.13022729277883083,0.1695369631052017
53,54803.05679057491,0.8182427309931768,1.378803481049882e+16,4343426.134233348,0.1302274745304031,0.13022737528657607,0.1604639738798141
54,54805.103344024996,0.818243077882441,1.3626728092429774e+16,4327206.364030907,0.1302273477900179,0.1302274304957172,0.1465482711791992
55,54807.03261957838,0.8182435273239932,1.370655143030955e+16,4333149.162733021,0.130227550834075,0.13022750202656186,0.1330758780241012
56,54809.01862572988,0.8182439975515504,1.3812235394515794e+16,4338810.578429081,0.1302276476758569,0.13022757686560196,0.1259833872318267
57,54811.012547495346,0.8182445685786461,1.4119036798837786e+16,4356896.627856662,0.1302278656973549,0.13022766774738687,0.126905545592308
58,54813.001979558845,0.8182447991383708,1.374167718803318e+16,4317810.475623543,0.1302275014703162,0.13022770444210674,0.1408484280109405
59,54814.991344693655,0.8182450824963858,1.3462667099168602e+16,4301288.631138288,0.1302275454974832,0.1302277495399355,0.1309041082859039
60,54816.9862051457,0.8182453643009093,1.3186740841995048e+16,4292074.742759518,0.1302276410982228,0.1302277943905184,0.1593163460493087
61,54818.92391590142,0.8182459192421077,1.3539873298835498e+16,4330651.025558602,0.1302282205601431,0.13022788271215324,0.1277515143156051
62,54821.46862733845,0.8182464792690867,1.3595639756892652e+16,4333224.145868274,0.1302282900089816,0.13022797184321522,0.152728796005249
63,54822.9646910881,0.818246455336772,1.2907865935707932e+16,4286491.028075312,0.1302275898145647,0.13022796803426903,0.1428200155496597
64,54824.96950873346,0.8182466693270767,1.2524557333628108e+16,4279545.444252398,0.1302278240516732,0.1302280020918838,0.1390012502670288
65,54826.94222045929,0.818247024412712,1.2470580597630186e+16,4295341.602524904,0.1302280358776497,0.1302280586055179,0.162532165646553
66,54828.94361369178,0.8182472819078667,1.220498559526603e+16,4293535.325070209,0.1302279587161939,0.13022809958714457,0.1528845578432083
67,54830.94665539172,0.8182476906970664,1.2266129228236022e+16,4310341.954034499,0.1302281877456954,0.13022816464796638,0.1822543740272522
68,54832.94577676587,0.8182480930934659,1.2304510419460892e+16,4319343.366984249,0.1302282589976355,0.13022822869134246,0.1475828886032104
69,54834.97972359335,0.8182486168167118,1.2598816260856172e+16,4338178.33174692,0.1302286222548548,0.13022831204448584,0.1077267378568649
70,54836.99395613783,0.8182492081863839,1.3040037951372102e+16,4357298.944465067,0.1302286691656974,0.13022840616389236,0.1440969556570053
71,54838.98240437768,0.818249783324279,1.3421422896713296e+16,4366892.760475659,0.1302287055818827,0.13022849769993133,0.1449076682329177
72,54841.00640995425,0.8182504900945636,1.405001050344318e+16,4388440.666859029,0.1302289716657589,0.13022861018591575,0.1449091434478759
73,54843.01858338605,0.818250675782499,1.3545224774282964e+16,4332359.393464536,0.1302283397640176,0.13022863973906854,0.1611597687005996
74,54845.029928483884,0.8182511864433304,1.3751089914542398e+16,4344331.000669717,0.1302288945341107,0.1302287210132641,0.139155313372612
75,54847.10692642196,0.8182512849835565,1.3049075720201196e+16,4291852.696077698,0.1302283851010441,0.13022873669642818,0.1524901092052459
76,54849.565901195674,0.8182517442112914,1.2988107262860848e+16,4304962.2592685,0.130228417053231,0.1302288097847922,0.1271023154258728
77,54851.06305165766,0.8182523483945776,1.3637024565418416e+16,4351071.42952474,0.13022943807938,0.13022890594354875,0.1387602537870407
78,54855.05366288803,0.818253415637778,1.4092743738782196e+16,4356553.587273081,0.1302292649968976,0.13022907580057955,0.1708471626043319
79,54857.05170606969,0.8182541187814493,1.463747293699619e+16,4374371.805669221,0.1302295180175355,0.13022918770937053,0.1564275026321411
80,54859.071767578906,0.8182544233232402,1.4350134412178782e+16,4338677.862199106,0.1302290897795861,0.13022923617870194,0.1521379202604293
81,54860.993521237426,0.8182548453040517,1.437613363485375e+16,4336678.5547233485,0.1302293224301378,0.13022930333903399,0.1455913186073303
82,54862.98256815423,0.8182553845208577,1.4578021495386284e+16,4347780.386942646,0.1302295119854057,0.13022938915805404,0.1406043022871017
83,54865.02285648663,0.8182559240834982,1.4736129903656554e+16,4351848.701414435,0.1302295248625141,0.1302294750321154,0.1520702838897705
84,54867.02102185335,0.818256222051912,1.4429774997598444e+16,4318547.517579849,0.1302293624973245,0.13022952245526134,0.1447952985763549
85,54868.985861753,0.8182567975039461,1.4746694981849226e+16,4348885.130666139,0.1302297685891139,0.13022961404129707,0.1529483646154403
86,54870.705829818624,0.8182571624414547,1.4748767386271804e+16,4342255.26690091,0.1302296898062173,0.13022967212290548,0.1195568069815635
87,54872.96840847111,0.8182576002670773,1.461925298442454e+16,4325611.770067462,0.1302296798794675,0.13022974180501753,0.13753741979599
88,54874.82923585018,0.818257920303813,1.4459728810592874e+16,4312959.474750541,0.1302297387420171,0.130229792740446,0.1711934804916381
89,54876.934983917,0.8182585448648176,1.4795013441935286e+16,4349213.487300031,0.1302302065981964,0.13022989214241715,0.1060707196593284
90,54878.969644598124,0.8182588405745086,1.4447534095443252e+16,4310134.994398604,0.1302296530737241,0.1302299392060762,0.1294290423393249
91,54880.971996542976,0.81825920286867,1.4285532035870392e+16,4303402.694410876,0.1302299253990702,0.13022999686698283,0.1545029431581497
92,54882.97212163349,0.8182598642736155,1.476415168780303e+16,4354895.98852218,0.1302304726914074,0.1302301021328493,0.1340168416500091
93,54884.995756797296,0.8182604651788737,1.5063198809849644e+16,4370920.281221457,0.1302304309522177,0.13023019776989148,0.1352369040250778
94,54887.02049568686,0.8182608520670377,1.4917623976758614e+16,4341572.949582107,0.1302301312467311,0.13023025934505517,0.1266237199306488
95,54888.95328825455,0.8182611281505981,1.4580446927912976e+16,4306950.602976408,0.1302300887272564,0.13023030328511853,0.151001289486885
96,54891.04008318881,0.8182612690312446,1.3937489836754768e+16,4261246.486510608,0.1302301231731329,0.13023032570696982,0.1810113042593002
97,54893.049031610084,0.8182616615349066,1.389758039441219e+16,4284575.7653753,0.1302303702636071,0.1302303881758678,0.1514518707990646
98,54895.04927605054,0.8182623528348764,1.447713370666478e+16,4349086.155115055,0.1302308473442897,0.13023049819967514,0.1530786305665969
99,54897.05328822592,0.8182627918870563,1.4468732903102276e+16,4340556.810430047,0.1302305634515053,0.13023056807699987,0.1722139418125152
100,54899.074704412764,0.8182631320486445,1.4258440396224858e+16,4318005.236971221,0.1302303931480979,0.13023062221539808,0.1442737877368927
101,54901.03956644064,0.8182637296456023,1.4644875056082202e+16,4354924.728191188,0.1302309950689089,0.13023071732590788,0.151916816830635
102,54905.28852779044,0.8182646562064132,1.4590702483785376e+16,4335176.822177332,0.1302307931556943,0.130230864792641,0.1376877427101135
103,54907.01707847015,0.818265204722569,1.4948020040896616e+16,4356585.6776651945,0.1302311446917032,0.13023095209169858,0.1494666486978531
104,54908.991684811655,0.8182657336588792,1.5116903215880438e+16,4358143.53366453,0.1302311011601635,0.13023103627452692,0.1800099909305572
105,54911.01186405513,0.818266385982143,1.5512605111184428e+16,4377927.900344749,0.1302313284072978,0.13023114009499884,0.1529033184051513
106,54913.00160889122,0.8182670336878192,1.5923896739128502e+16,4394572.542475949,0.1302314013204248,0.13023124318055887,0.1651625782251358
107,54914.977013314456,0.8182672836882876,1.5461456991613344e+16,4325007.035471312,0.1302311441952093,0.1302312829693692,0.1704466491937637
108,54916.991294825064,0.8182678986574026,1.5793794587327982e+16,4361243.672757835,0.130231475061304,0.1302313808447437,0.1767793297767639
109,54918.98005592909,0.8182682732097033,1.5597344891964724e+16,4326689.235358226,0.1302313556938081,0.1302314404565938,0.1629649400711059
110,54920.965611126965,0.8182682839730187,1.4586146213930394e+16,4206009.544063959,0.1302310078168598,0.13023144216962865,0.1708390265703201
111,54922.96732541506,0.818268580406754,1.424516718885753e+16,4214552.323879749,0.1302313520053062,0.13023148934852294,0.171324074268341
112,54924.9764813055,0.818269118876123,1.4514011255681484e+16,4289889.066797812,0.1302316975650312,0.1302315750485847,0.1768893450498581
113,54926.97633972532,0.8182696022242271,1.4628250434400928e+16,4318018.960849377,0.1302317183186481,0.1302316519758247,0.1648436486721038
114,54928.93967044734,0.8182701492624317,1.4892405232599466e+16,4351207.509023091,0.1302319518772073,0.130231739039659,0.1517218947410583
115,54930.99296599676,0.8182707604802615,1.5285855349992192e+16,4384377.225966078,0.1302320244286579,0.13023183631799795,0.1899247169494629
116,54933.03004364149,0.8182712444411989,1.533119008627534e+16,4367622.440948116,0.1302319413500993,0.1302319133427734,0.1858917027711868
117,54935.03361754047,0.8182716940648637,1.5312068356439928e+16,4350762.759141321,0.1302319726692138,0.13023198490260218,0.1518411785364151
118,54937.03193731326,0.8182722013125204,1.5446727526016702e+16,4357087.60514496,0.1302321663068954,0.13023206563357415,0.15597565472126
119,54939.02776090444,0.818272858182753,1.5903429931980692e+16,4395057.673968507,0.1302323984801435,0.1302321701777186,0.16473488509655
120,54941.038843778624,0.8182734352484896,1.6121084087977842e+16,4393265.689074023,0.130232367251407,0.13023226202058308,0.1812899559736251
121,54943.035765156,0.8182739220037945,1.6145147073522136e+16,4371407.009443018,0.1302323631333923,0.1302323394900959,0.1497006267309188
122,54945.03447370095,0.818274720996986,1.6876360256025328e+16,4439278.719760594,0.1302327748009183,0.13023246665381186,0.1883327662944793
123,54947.04084357145,0.8182752326333941,1.6940297140706866e+16,4404593.506258992,0.1302325859759671,0.13023254808327525,0.1738346368074417
124,54949.06404181267,0.8182758500267348,1.723351465828399e+16,4413228.692569551,0.1302327756890256,0.13023264634447726,0.1980869323015213
125,54951.056424547234,0.8182765158709981,1.760030616933427e+16,4431598.958056566,0.1302329994537751,0.1302327523168831,0.1601074934005737
126,54953.04325616283,0.8182769873635135,1.7552920982894462e+16,4385991.802273641,0.1302328075466561,0.13023282735724756,0.1853965371847152
127,54955.020252383496,0.8182774326000806,1.7453569575015974e+16,4350196.370409536,0.1302328438376695,0.13023289821884804,0.1695774644613266
128,54957.01619559417,0.818277653709415,1.6849932712873382e+16,4250424.382880032,0.1302325885977753,0.1302329334094916,0.176227793097496
129,54958.9530878191,0.8182780177497533,1.6624242902122382e+16,4246980.042411309,0.1302328678062621,0.1302329913483109,0.163773775100708
130,54961.002463568206,0.8182782707470229,1.611845711224685e+16,4205680.663682166,0.1302327776010922,0.13023303161407696,0.1719205230474472
131,54962.489400053055,0.8182786755443847,1.6261443095976058e+16,4266269.986637787,0.1302335519675972,0.13023309603957806,0.1750402748584747
132,54964.992062849444,0.8182795042940989,1.6795400967215124e+16,4365760.28876142,0.1302334318632381,0.13023322793919165,0.1678888350725174
133,54966.969206338625,0.8182800396485286,1.69081402570007e+16,4367424.823551367,0.1302333488163884,0.13023331314349543,0.1802482903003692
134,54968.954980447925,0.8182805146858049,1.688392870603327e+16,4350066.820798678,0.1302333825454009,0.1302333887480261,0.1967799067497253
135,54970.96189467829,0.8182813727945768,1.7680307048865744e+16,4461097.818077608,0.1302338652880833,0.13023352532027888,0.186068907380104
136,54972.962827851254,0.8182818110839695,1.7534801515083658e+16,4387528.699682349,0.130233552655265,0.13023359507620222,0.205548495054245
137,54974.97388553349,0.8182822148242679,1.7342640968838624e+16,4333167.601053867,0.1302335810265177,0.13023365933346645,0.1804774552583694
138,54976.97470489494,0.8182830533958796,1.8098859032385144e+16,4467682.453189881,0.1302341400875207,0.13023379279628358,0.1699205487966537
139,54979.00012385894,0.8182834908714028,1.7878983747466542e+16,4373901.265139498,0.1302337703391722,0.1302338624226756,0.1925964653491974
140,54980.985085583685,0.8182840946001342,1.8119982237544108e+16,4404669.732612531,0.1302341032267057,0.13023395850908748,0.1534400284290313
141,54983.00427469128,0.8182845539355875,1.8002727871102668e+16,4354007.8226051405,0.1302339543246905,0.1302340316145954,0.156088650226593
142,54985.06336236499,0.818284953116537,1.7733868583294462e+16,4294326.077560127,0.1302339485398541,0.1302340951462167,0.1592405885457992
143,54987.07553728095,0.8182854079997122,1.7637940931027294e+16,4291670.544723023,0.1302341100933371,0.13023416754312256,0.1474754065275192
